23689 .False. # Number of lines, conductive flag
# 5 line header for n-k original data
# Dry Ice CO2 solid - Hansen (1997, 2005)
# Taken from: courtesy Gary Hansen & Daniel Kitzmann - cite Hansen if used!!!
# wl(um)      n                k
5.200000e-02	5.047000e-01	1.163000e-01
5.300000e-02	5.100310e-01	1.839000e-01
5.410000e-02	5.158710e-01	2.605000e-01
5.510000e-02	5.306100e-01	3.283000e-01
5.640000e-02	5.701710e-01	4.211000e-01
5.740000e-02	6.283750e-01	4.813000e-01
5.790000e-02	6.656850e-01	4.987000e-01
5.850000e-02	7.102390e-01	5.132000e-01
5.900000e-02	7.456120e-01	5.132000e-01
5.950000e-02	7.765350e-01	5.122000e-01
6.020000e-02	8.190110e-01	5.054000e-01
6.200000e-02	8.837790e-01	4.484000e-01
6.260000e-02	8.927040e-01	4.279000e-01
6.330000e-02	8.954780e-01	4.086000e-01
6.530000e-02	8.925520e-01	3.728000e-01
6.700000e-02	8.757660e-01	3.525000e-01
6.850000e-02	8.634360e-01	3.554000e-01
7.040000e-02	8.338350e-01	3.341000e-01
7.250000e-02	7.926820e-01	3.660000e-01
7.470000e-02	7.512400e-01	3.883000e-01
7.750000e-02	7.066800e-01	4.900000e-01
7.950000e-02	7.084220e-01	5.782000e-01
8.050000e-02	7.309350e-01	6.333000e-01
8.160000e-02	7.680350e-01	6.652000e-01
8.270000e-02	8.086870e-01	6.973000e-01
8.380000e-02	8.506650e-01	7.060000e-01
8.490000e-02	9.035850e-01	7.215000e-01
8.610000e-02	9.453660e-01	6.681000e-01
8.730000e-02	9.316110e-01	6.169000e-01
8.750000e-02	9.225930e-01	6.101000e-01
8.800000e-02	8.981920e-01	6.023000e-01
8.860000e-02	8.600820e-01	6.023000e-01
8.980000e-02	8.170470e-01	6.749000e-01
9.120000e-02	8.208870e-01	7.515000e-01
9.250000e-02	8.587350e-01	8.212000e-01
9.390000e-02	9.102700e-01	8.493000e-01
9.450000e-02	9.302970e-01	8.657000e-01
9.500000e-02	9.521950e-01	8.783000e-01
9.540000e-02	9.763190e-01	8.870000e-01
9.600000e-02	1.012251e+00	8.793000e-01
9.650000e-02	1.035213e+00	8.628000e-01
9.690000e-02	1.043555e+00	8.425000e-01
9.750000e-02	1.042580e+00	8.222000e-01
9.800000e-02	1.032962e+00	8.085000e-01
9.840000e-02	1.023813e+00	8.094000e-01
9.900000e-02	1.014842e+00	8.094000e-01
9.950000e-02	1.006332e+00	8.114000e-01
1.000000e-01	9.936810e-01	8.133000e-01
1.016000e-01	9.633770e-01	8.580000e-01
1.033000e-01	9.493400e-01	9.296000e-01
1.051000e-01	9.721270e-01	1.031000e+00
1.069000e-01	1.036152e+00	1.104000e+00
1.090000e-01	1.074177e+00	1.113000e+00
1.110000e-01	1.033281e+00	1.163000e+00
1.120000e-01	9.755520e-01	1.220000e+00
1.130000e-01	8.888280e-01	1.327000e+00
1.140000e-01	8.128100e-01	1.558000e+00
1.150000e-01	8.121100e-01	1.889000e+00
1.155000e-01	8.629760e-01	2.112000e+00
1.160000e-01	9.767230e-01	2.343000e+00
1.165000e-01	1.159044e+00	2.586000e+00
1.170000e-01	1.432970e+00	2.817000e+00
1.173000e-01	1.657514e+00	2.928000e+00
1.177000e-01	1.984024e+00	2.997000e+00
1.180000e-01	2.237594e+00	3.006000e+00
1.183000e-01	2.498436e+00	2.992000e+00
1.186000e-01	2.774158e+00	2.939000e+00
1.190000e-01	3.151480e+00	2.798000e+00
1.195000e-01	3.617528e+00	2.469000e+00
1.200000e-01	3.840301e+00	1.829000e+00
1.205000e-01	3.752951e+00	1.312000e+00
1.210000e-01	3.583966e+00	1.017000e+00
1.215000e-01	3.443034e+00	8.231000e-01
1.220000e-01	3.315751e+00	6.585000e-01
1.250000e-01	2.739383e+00	2.033627e-01
1.300000e-01	2.262946e+00	4.791478e-02
1.350000e-01	2.036133e+00	1.781674e-02
1.400000e-01	1.905229e+00	8.759449e-03
1.450000e-01	1.819190e+00	4.930060e-03
1.500000e-01	1.757726e+00	2.824960e-03
1.550000e-01	1.711258e+00	1.497950e-03
1.600000e-01	1.674725e+00	6.801692e-04
1.650000e-01	1.645221e+00	2.483543e-04
1.700000e-01	1.620963e+00	6.931624e-05
1.740000e-01	1.604754e+00	5.264847e-05
1.741250e-01	1.604248e+00	4.560843e-05
1.742500e-01	1.603741e+00	3.871769e-05
1.743750e-01	1.603235e+00	3.375693e-05
1.745000e-01	1.602728e+00	2.986659e-05
1.746250e-01	1.602222e+00	2.685444e-05
1.747500e-01	1.601715e+00	2.441505e-05
1.750000e-01	1.600702e+00	2.081806e-05
1.752500e-01	1.599844e+00	1.836264e-05
1.755000e-01	1.598986e+00	1.648389e-05
1.757500e-01	1.598128e+00	1.498572e-05
1.760000e-01	1.597269e+00	1.372370e-05
1.762500e-01	1.596411e+00	1.257683e-05
1.765000e-01	1.595553e+00	1.150587e-05
1.767500e-01	1.594695e+00	1.049653e-05
1.770000e-01	1.593837e+00	9.525829e-06
1.772500e-01	1.592979e+00	8.588317e-06
1.775000e-01	1.592121e+00	7.698267e-06
1.777500e-01	1.591262e+00	6.927038e-06
1.780000e-01	1.590404e+00	6.290725e-06
1.782500e-01	1.589546e+00	5.751606e-06
1.785000e-01	1.588688e+00	5.278990e-06
1.787500e-01	1.587830e+00	4.849407e-06
1.790000e-01	1.586972e+00	4.458345e-06
1.792500e-01	1.586114e+00	4.097552e-06
1.795000e-01	1.585255e+00	3.764875e-06
1.797500e-01	1.584397e+00	3.454714e-06
1.800000e-01	1.583539e+00	3.166165e-06
1.802500e-01	1.582758e+00	2.900181e-06
1.805000e-01	1.581978e+00	2.658440e-06
1.810000e-01	1.580416e+00	2.224048e-06
1.817500e-01	1.578143e+00	1.683373e-06
1.820000e-01	1.577385e+00	1.527822e-06
1.822500e-01	1.576643e+00	1.389140e-06
1.825000e-01	1.575906e+00	1.260514e-06
1.827500e-01	1.575171e+00	1.149040e-06
1.830000e-01	1.574445e+00	1.046358e-06
1.832500e-01	1.573721e+00	9.569375e-07
1.835000e-01	1.573006e+00	8.730522e-07
1.840000e-01	1.571588e+00	7.312781e-07
1.845000e-01	1.570190e+00	6.149280e-07
1.850000e-01	1.568811e+00	5.191654e-07
1.852500e-01	1.568127e+00	4.793567e-07
1.855000e-01	1.567452e+00	4.403834e-07
1.857500e-01	1.566778e+00	4.042744e-07
1.860000e-01	1.566112e+00	3.697688e-07
1.862500e-01	1.565447e+00	3.371995e-07
1.865000e-01	1.564790e+00	3.066043e-07
1.867500e-01	1.564134e+00	2.786752e-07
1.870000e-01	1.563487e+00	2.535571e-07
1.872500e-01	1.562840e+00	2.308892e-07
1.875000e-01	1.562206e+00	2.101890e-07
1.880000e-01	1.560937e+00	1.741709e-07
1.885000e-01	1.559686e+00	1.444189e-07
1.890000e-01	1.558452e+00	1.202444e-07
1.895000e-01	1.557230e+00	1.008109e-07
1.900000e-01	1.556028e+00	8.413822e-08
1.905000e-01	1.554842e+00	6.983682e-08
1.910000e-01	1.553672e+00	5.772845e-08
1.915000e-01	1.552520e+00	4.747280e-08
1.920000e-01	1.551381e+00	3.893821e-08
1.922500e-01	1.550812e+00	3.538452e-08
1.925000e-01	1.550251e+00	3.196239e-08
1.927500e-01	1.549693e+00	2.907730e-08
1.930000e-01	1.549140e+00	2.627678e-08
1.932500e-01	1.548589e+00	2.394255e-08
1.935000e-01	1.548043e+00	2.165763e-08
1.937500e-01	1.547499e+00	1.972750e-08
1.940000e-01	1.546960e+00	1.783092e-08
1.945000e-01	1.545892e+00	1.471399e-08
1.950000e-01	1.544838e+00	1.229957e-08
1.955000e-01	1.543792e+00	1.046297e-08
1.960000e-01	1.542764e+00	9.126693e-09
1.965000e-01	1.541759e+00	8.211600e-09
1.970000e-01	1.540803e+00	7.635837e-09
1.975000e-01	1.539846e+00	7.226156e-09
1.980000e-01	1.538890e+00	6.868346e-09
1.990000e-01	1.536977e+00	6.337534e-09
2.000000e-01	1.535065e+00	5.928363e-09
2.020000e-01	1.531427e+00	5.251588e-09
2.050000e-01	1.526592e+00	4.433488e-09
2.100000e-01	1.518533e+00	3.301311e-09
2.120000e-01	1.515440e+00	2.923644e-09
2.150000e-01	1.511333e+00	2.330267e-09
2.160000e-01	1.509964e+00	2.179188e-09
2.170000e-01	1.508660e+00	2.035243e-09
2.200000e-01	1.504949e+00	1.644122e-09
2.220000e-01	1.502526e+00	1.481523e-09
2.250000e-01	1.499158e+00	1.215297e-09
2.280000e-01	1.495929e+00	9.983188e-10
2.300000e-01	1.493883e+00	8.477683e-10
2.320000e-01	1.491883e+00	7.514208e-10
2.340000e-01	1.490090e+00	6.591879e-10
2.350000e-01	1.489193e+00	6.148231e-10
2.360000e-01	1.488296e+00	5.846866e-10
2.380000e-01	1.486503e+00	5.280126e-10
2.400000e-01	1.484709e+00	4.698445e-10
2.420000e-01	1.482955e+00	4.476271e-10
2.440000e-01	1.481437e+00	4.237157e-10
2.450000e-01	1.480677e+00	4.110053e-10
2.460000e-01	1.479918e+00	4.091788e-10
2.480000e-01	1.478400e+00	4.016510e-10
2.500000e-01	1.476881e+00	3.902280e-10
2.520000e-01	1.475385e+00	3.918859e-10
2.540000e-01	1.474086e+00	3.937228e-10
2.600000e-01	1.470189e+00	3.954921e-10
2.620000e-01	1.468906e+00	3.956988e-10
2.640000e-01	1.467856e+00	3.971438e-10
2.700000e-01	1.464707e+00	4.145278e-10
2.720000e-01	1.463657e+00	4.177499e-10
2.740000e-01	1.462608e+00	4.193389e-10
2.800000e-01	1.459459e+00	4.306383e-10
2.825000e-01	1.458205e+00	4.348879e-10
2.900000e-01	1.455178e+00	4.337179e-10
3.000000e-01	1.451143e+00	4.575307e-10
3.100000e-01	1.447604e+00	4.721156e-10
3.448270e-01	1.438333e+00	5.227408e-10
3.835670e-01	1.431033e+00	5.788132e-10
4.266590e-01	1.425247e+00	6.408863e-10
4.745930e-01	1.420734e+00	7.096403e-10
5.279110e-01	1.417165e+00	7.857517e-10
5.872200e-01	1.414347e+00	8.700562e-10
6.531920e-01	1.412016e+00	9.633856e-10
7.265750e-01	1.410183e+00	1.066703e-09
8.082030e-01	1.408650e+00	1.181140e-09
8.990010e-01	1.407387e+00	1.307827e-09
1.000000e+00	1.406328e+00	1.448071e-09
1.010000e+00	1.406238e+00	1.461909e-09
1.020000e+00	1.406149e+00	1.475328e-09
1.030000e+00	1.406062e+00	1.499546e-09
1.035000e+00	1.406019e+00	1.514320e-09
1.036000e+00	1.406011e+00	1.517350e-09
1.037000e+00	1.406002e+00	1.520465e-09
1.037500e+00	1.405998e+00	1.522106e-09
1.037700e+00	1.405996e+00	1.522730e-09
1.037900e+00	1.405995e+00	1.523354e-09
1.038000e+00	1.405994e+00	1.523666e-09
1.038100e+00	1.405993e+00	1.523978e-09
1.038200e+00	1.405992e+00	1.644498e-09
1.038250e+00	1.405991e+00	1.747771e-09
1.038300e+00	1.405991e+00	1.880138e-09
1.038400e+00	1.405990e+00	2.282000e-09
1.038500e+00	1.405989e+00	2.875996e-09
1.038600e+00	1.405988e+00	3.709294e-09
1.038650e+00	1.405988e+00	4.367971e-09
1.038700e+00	1.405987e+00	5.144579e-09
1.038750e+00	1.405987e+00	6.097165e-09
1.038800e+00	1.405986e+00	7.159126e-09
1.038850e+00	1.405986e+00	8.454564e-09
1.038900e+00	1.405986e+00	9.919938e-09
1.038950e+00	1.405986e+00	1.171368e-08
1.039000e+00	1.405985e+00	1.364567e-08
1.039050e+00	1.405985e+00	1.594662e-08
1.039100e+00	1.405984e+00	1.849586e-08
1.039150e+00	1.405984e+00	2.094198e-08
1.039200e+00	1.405984e+00	2.341894e-08
1.039250e+00	1.405983e+00	2.524114e-08
1.039275e+00	1.405983e+00	2.592735e-08
1.039300e+00	1.405983e+00	2.643827e-08
1.039325e+00	1.405982e+00	2.661837e-08
1.039350e+00	1.405982e+00	2.658014e-08
1.039375e+00	1.405982e+00	2.610519e-08
1.039400e+00	1.405982e+00	2.539201e-08
1.039425e+00	1.405981e+00	2.446870e-08
1.039450e+00	1.405981e+00	2.342953e-08
1.039500e+00	1.405981e+00	2.107808e-08
1.039550e+00	1.405980e+00	1.843025e-08
1.039600e+00	1.405980e+00	1.578133e-08
1.039650e+00	1.405979e+00	1.331666e-08
1.039675e+00	1.405979e+00	1.222157e-08
1.039700e+00	1.405979e+00	1.128115e-08
1.039750e+00	1.405979e+00	9.599573e-09
1.039800e+00	1.405978e+00	8.137275e-09
1.039850e+00	1.405978e+00	6.940128e-09
1.039900e+00	1.405977e+00	5.869891e-09
1.039950e+00	1.405977e+00	5.003133e-09
1.040000e+00	1.405976e+00	4.258445e-09
1.040050e+00	1.405976e+00	3.700072e-09
1.040100e+00	1.405975e+00	3.241547e-09
1.040150e+00	1.405975e+00	2.864591e-09
1.040200e+00	1.405975e+00	2.540079e-09
1.040250e+00	1.405975e+00	2.269592e-09
1.040300e+00	1.405974e+00	2.040223e-09
1.040350e+00	1.405974e+00	1.871515e-09
1.040400e+00	1.405973e+00	1.768611e-09
1.040500e+00	1.405972e+00	1.681013e-09
1.040600e+00	1.405971e+00	1.618903e-09
1.040700e+00	1.405971e+00	1.576988e-09
1.040800e+00	1.405970e+00	1.550967e-09
1.040900e+00	1.405969e+00	1.537117e-09
1.041000e+00	1.405968e+00	1.533288e-09
1.042000e+00	1.405960e+00	1.536585e-09
1.043000e+00	1.405952e+00	1.539886e-09
1.044000e+00	1.405943e+00	1.543190e-09
1.045000e+00	1.405935e+00	1.546581e-09
1.046000e+00	1.405927e+00	1.549975e-09
1.047000e+00	1.405919e+00	1.553374e-09
1.048000e+00	1.405910e+00	1.556775e-09
1.049000e+00	1.405902e+00	1.560181e-09
1.049500e+00	1.405898e+00	1.561927e-09
1.049900e+00	1.405895e+00	1.563357e-09
1.050000e+00	1.405894e+00	1.584312e-09
1.050100e+00	1.405893e+00	1.615632e-09
1.050200e+00	1.405892e+00	1.665846e-09
1.050300e+00	1.405891e+00	1.729358e-09
1.050400e+00	1.405890e+00	1.859753e-09
1.050500e+00	1.405889e+00	2.127605e-09
1.050550e+00	1.405889e+00	2.329350e-09
1.050600e+00	1.405888e+00	2.559874e-09
1.050650e+00	1.405888e+00	2.872606e-09
1.050700e+00	1.405887e+00	3.262709e-09
1.050750e+00	1.405887e+00	3.769411e-09
1.050800e+00	1.405887e+00	4.386288e-09
1.050850e+00	1.405887e+00	5.282527e-09
1.050900e+00	1.405886e+00	6.414014e-09
1.050950e+00	1.405886e+00	8.010686e-09
1.051000e+00	1.405885e+00	9.846457e-09
1.051050e+00	1.405885e+00	1.204498e-08
1.051100e+00	1.405884e+00	1.442941e-08
1.051125e+00	1.405884e+00	1.581743e-08
1.051150e+00	1.405884e+00	1.741465e-08
1.051175e+00	1.405884e+00	1.922274e-08
1.051200e+00	1.405883e+00	2.135297e-08
1.051250e+00	1.405883e+00	2.656741e-08
1.051300e+00	1.405882e+00	3.211449e-08
1.051350e+00	1.405882e+00	3.787041e-08
1.051375e+00	1.405882e+00	4.046244e-08
1.051400e+00	1.405882e+00	4.282283e-08
1.051425e+00	1.405882e+00	4.482104e-08
1.051450e+00	1.405882e+00	4.638928e-08
1.051475e+00	1.405882e+00	4.702965e-08
1.051500e+00	1.405881e+00	4.676803e-08
1.051525e+00	1.405881e+00	4.563280e-08
1.051550e+00	1.405881e+00	4.383728e-08
1.051575e+00	1.405881e+00	4.162996e-08
1.051600e+00	1.405880e+00	3.907274e-08
1.051650e+00	1.405880e+00	3.341480e-08
1.051700e+00	1.405879e+00	2.829698e-08
1.051750e+00	1.405879e+00	2.366828e-08
1.051800e+00	1.405879e+00	1.965350e-08
1.051850e+00	1.405879e+00	1.625188e-08
1.051900e+00	1.405878e+00	1.337981e-08
1.051950e+00	1.405878e+00	1.110266e-08
1.052000e+00	1.405877e+00	9.194473e-09
1.052050e+00	1.405877e+00	7.778293e-09
1.052100e+00	1.405876e+00	6.686239e-09
1.052150e+00	1.405876e+00	5.812526e-09
1.052200e+00	1.405876e+00	5.147305e-09
1.052250e+00	1.405875e+00	4.705092e-09
1.052300e+00	1.405875e+00	4.327651e-09
1.052400e+00	1.405874e+00	3.704061e-09
1.052500e+00	1.405873e+00	3.148696e-09
1.052600e+00	1.405872e+00	2.674225e-09
1.052700e+00	1.405872e+00	2.281341e-09
1.052800e+00	1.405871e+00	1.951971e-09
1.052900e+00	1.405870e+00	1.719898e-09
1.053000e+00	1.405869e+00	1.614731e-09
1.053200e+00	1.405867e+00	1.574976e-09
1.053500e+00	1.405865e+00	1.576012e-09
1.054000e+00	1.405861e+00	1.577850e-09
1.055000e+00	1.405853e+00	1.581446e-09
1.056000e+00	1.405845e+00	1.585046e-09
1.057000e+00	1.405836e+00	1.588734e-09
1.058000e+00	1.405828e+00	1.592341e-09
1.059000e+00	1.405820e+00	1.596122e-09
1.060000e+00	1.405812e+00	1.599822e-09
1.061000e+00	1.405804e+00	1.603611e-09
1.062000e+00	1.405796e+00	1.607404e-09
1.063000e+00	1.405788e+00	1.611202e-09
1.064000e+00	1.405780e+00	1.615088e-09
1.065000e+00	1.405772e+00	1.618979e-09
1.066000e+00	1.405764e+00	1.622960e-09
1.066400e+00	1.405761e+00	1.624587e-09
1.066500e+00	1.405760e+00	1.624909e-09
1.066600e+00	1.405759e+00	1.640000e-09
1.066650e+00	1.405759e+00	1.715282e-09
1.066700e+00	1.405758e+00	1.847189e-09
1.066750e+00	1.405758e+00	2.037937e-09
1.066800e+00	1.405758e+00	2.304852e-09
1.066900e+00	1.405757e+00	3.033690e-09
1.066950e+00	1.405757e+00	3.484933e-09
1.067000e+00	1.405756e+00	3.999137e-09
1.067050e+00	1.405756e+00	4.619614e-09
1.067100e+00	1.405755e+00	5.389010e-09
1.067200e+00	1.405754e+00	7.072136e-09
1.067300e+00	1.405754e+00	8.882297e-09
1.067400e+00	1.405753e+00	1.086395e-08
1.067500e+00	1.405752e+00	1.274659e-08
1.067550e+00	1.405752e+00	1.360521e-08
1.067600e+00	1.405751e+00	1.425917e-08
1.067650e+00	1.405751e+00	1.459458e-08
1.067680e+00	1.405751e+00	1.452702e-08
1.067700e+00	1.405751e+00	1.442873e-08
1.067750e+00	1.405751e+00	1.364600e-08
1.067800e+00	1.405750e+00	1.254114e-08
1.067850e+00	1.405750e+00	1.133251e-08
1.067900e+00	1.405749e+00	1.007787e-08
1.068000e+00	1.405748e+00	7.825253e-09
1.068100e+00	1.405748e+00	5.915430e-09
1.068150e+00	1.405747e+00	5.098851e-09
1.068200e+00	1.405747e+00	4.419222e-09
1.068250e+00	1.405747e+00	3.864832e-09
1.068300e+00	1.405746e+00	3.438845e-09
1.068400e+00	1.405745e+00	2.796667e-09
1.068500e+00	1.405744e+00	2.275959e-09
1.068600e+00	1.405744e+00	1.873694e-09
1.068650e+00	1.405743e+00	1.744435e-09
1.068700e+00	1.405743e+00	1.660068e-09
1.068800e+00	1.405742e+00	1.642872e-09
1.068900e+00	1.405742e+00	1.634605e-09
1.069000e+00	1.405741e+00	1.635013e-09
1.070000e+00	1.405733e+00	1.639097e-09
1.075000e+00	1.405694e+00	1.660016e-09
1.080000e+00	1.405656e+00	1.681488e-09
1.090000e+00	1.405579e+00	1.723860e-09
1.100000e+00	1.405502e+00	1.762172e-09
1.111077e+00	1.405424e+00	1.658697e-09
1.117284e+00	1.405380e+00	1.658984e-09
1.120000e+00	1.405361e+00	1.660432e-09
1.123174e+00	1.405338e+00	1.662545e-09
1.123559e+00	1.405335e+00	1.662847e-09
1.129586e+00	1.405293e+00	1.669969e-09
1.129906e+00	1.405290e+00	1.670352e-09
1.130000e+00	1.405290e+00	1.670401e-09
1.132786e+00	1.405270e+00	1.672717e-09
1.135000e+00	1.405254e+00	1.675444e-09
1.135938e+00	1.405247e+00	1.676286e-09
1.136004e+00	1.405247e+00	1.676293e-09
1.136325e+00	1.405245e+00	1.677038e-09
1.138000e+00	1.405233e+00	1.681231e-09
1.138525e+00	1.405229e+00	1.682550e-09
1.139823e+00	1.405220e+00	1.685738e-09
1.140000e+00	1.405218e+00	1.686091e-09
1.142000e+00	1.405204e+00	1.691139e-09
1.142429e+00	1.405201e+00	1.692502e-09
1.142495e+00	1.405201e+00	1.692690e-09
1.142817e+00	1.405199e+00	1.692712e-09
1.144000e+00	1.405190e+00	1.694101e-09
1.145046e+00	1.405183e+00	1.696287e-09
1.146000e+00	1.405176e+00	1.697974e-09
1.146359e+00	1.405173e+00	1.698871e-09
1.148000e+00	1.405162e+00	1.701851e-09
1.148994e+00	1.405155e+00	1.704513e-09
1.149061e+00	1.405154e+00	1.704613e-09
1.149384e+00	1.405152e+00	1.704726e-09
1.150000e+00	1.405148e+00	1.705182e-09
1.152000e+00	1.405134e+00	1.708698e-09
1.152373e+00	1.405132e+00	1.709801e-09
1.155000e+00	1.405115e+00	1.715353e-09
1.155703e+00	1.405110e+00	1.717685e-09
1.156027e+00	1.405108e+00	1.718350e-09
1.159053e+00	1.405088e+00	1.725615e-09
1.160000e+00	1.405082e+00	1.727210e-09
1.162355e+00	1.405066e+00	1.732844e-09
1.162422e+00	1.405066e+00	1.733129e-09
1.162747e+00	1.405063e+00	1.733428e-09
1.165000e+00	1.405048e+00	1.737714e-09
1.169220e+00	1.405021e+00	1.748847e-09
1.169546e+00	1.405018e+00	1.749800e-09
1.170000e+00	1.405016e+00	1.750852e-09
1.172000e+00	1.405002e+00	1.754404e-09
1.175000e+00	1.404983e+00	1.757212e-09
1.176030e+00	1.404976e+00	1.757068e-09
1.176098e+00	1.404975e+00	1.757076e-09
1.176424e+00	1.404973e+00	1.757376e-09
1.178000e+00	1.404963e+00	1.763854e-09
1.178803e+00	1.404957e+00	1.765807e-09
1.180000e+00	1.404950e+00	1.768633e-09
1.181590e+00	1.404939e+00	1.768760e-09
1.182000e+00	1.404936e+00	1.768621e-09
1.183057e+00	1.404929e+00	1.774439e-09
1.183384e+00	1.404927e+00	1.775683e-09
1.184000e+00	1.404923e+00	1.789892e-09
1.184390e+00	1.404921e+00	1.800095e-09
1.184786e+00	1.404918e+00	1.807768e-09
1.185000e+00	1.404917e+00	1.818091e-09
1.186000e+00	1.404910e+00	1.845390e-09
1.186191e+00	1.404909e+00	1.845687e-09
1.187000e+00	1.404903e+00	1.854408e-09
1.187203e+00	1.404902e+00	1.854159e-09
1.187272e+00	1.404902e+00	1.853700e-09
1.187600e+00	1.404899e+00	1.849108e-09
1.188000e+00	1.404897e+00	1.852095e-09
1.188684e+00	1.404892e+00	1.855620e-09
1.189000e+00	1.404890e+00	1.858006e-09
1.189012e+00	1.404890e+00	1.858214e-09
1.190000e+00	1.404884e+00	1.908433e-09
1.190030e+00	1.404883e+00	1.922307e-09
1.190099e+00	1.404883e+00	1.954429e-09
1.190200e+00	1.404882e+00	2.002046e-09
1.190400e+00	1.404881e+00	2.115110e-09
1.190427e+00	1.404881e+00	2.142724e-09
1.190600e+00	1.404880e+00	2.320588e-09
1.190800e+00	1.404878e+00	2.675762e-09
1.191000e+00	1.404877e+00	3.198526e-09
1.191200e+00	1.404876e+00	3.916455e-09
1.191400e+00	1.404874e+00	4.934977e-09
1.191518e+00	1.404873e+00	5.716197e-09
1.191600e+00	1.404873e+00	6.264866e-09
1.191800e+00	1.404872e+00	7.816274e-09
1.191846e+00	1.404872e+00	8.174043e-09
1.192000e+00	1.404870e+00	9.380059e-09
1.192200e+00	1.404869e+00	1.091695e-08
1.192400e+00	1.404868e+00	1.244648e-08
1.192600e+00	1.404867e+00	1.394616e-08
1.192800e+00	1.404865e+00	1.544443e-08
1.192939e+00	1.404865e+00	1.641263e-08
1.193000e+00	1.404864e+00	1.683309e-08
1.193200e+00	1.404863e+00	1.814720e-08
1.193268e+00	1.404862e+00	1.851761e-08
1.193400e+00	1.404862e+00	1.923477e-08
1.193600e+00	1.404861e+00	2.002446e-08
1.193800e+00	1.404859e+00	2.051326e-08
1.193980e+00	1.404858e+00	2.071588e-08
1.194000e+00	1.404858e+00	2.073808e-08
1.194200e+00	1.404857e+00	2.072635e-08
1.194365e+00	1.404855e+00	2.063417e-08
1.194400e+00	1.404855e+00	2.061386e-08
1.194600e+00	1.404854e+00	2.047377e-08
1.194693e+00	1.404853e+00	2.045350e-08
1.194800e+00	1.404852e+00	2.042776e-08
1.195000e+00	1.404851e+00	2.045876e-08
